Freq	Power
[Hz]	[dB]
0.000	-58.681
0.977	-61.742
1.953	-105.268
2.930	-91.991
3.906	-88.454
4.883	-93.339
5.859	-101.297
6.836	-95.930
7.812	-95.009
8.789	-93.984
9.766	-97.394
10.742	-105.783
11.719	-93.996
12.695	-96.260
13.672	-89.276
14.648	-90.896
15.625	-91.220
16.602	-93.349
17.578	-98.830
18.555	-104.107
19.531	-94.336
20.508	-89.797
21.484	-89.708
22.461	-94.122
23.437	-95.575
24.414	-107.833
25.391	-104.793
26.367	-103.129
27.344	-97.113
28.320	-95.908
29.297	-94.557
30.273	-107.801
31.250	-95.999
32.227	-89.477
33.203	-93.690
34.180	-106.605
35.156	-102.405
36.133	-100.547
37.109	-100.643
38.086	-114.546
39.062	-110.825
40.039	-99.230
41.016	-95.604
41.992	-89.809
42.969	-90.157
43.945	-100.173
44.922	-95.350
45.898	-93.768
46.875	-98.524
47.852	-108.956
48.828	-98.252
49.805	-96.786
50.781	-104.838
51.758	-99.333
52.734	-104.482
53.711	-97.883
54.687	-95.675
55.664	-94.526
56.641	-99.878
57.617	-89.434
58.594	-86.109
59.570	-96.500
60.547	-99.989
61.523	-97.502
62.500	-97.401
63.477	-95.270
64.453	-96.155
65.430	-99.543
66.406	-106.220
67.383	-96.458
68.359	-95.574
69.336	-102.240
70.312	-95.628
71.289	-91.681
72.266	-86.196
73.242	-87.365
74.219	-98.663
75.195	-103.175
76.172	-93.279
77.148	-89.964
78.125	-92.089
79.102	-98.674
80.078	-92.728
81.055	-87.888
82.031	-91.257
83.008	-95.878
83.984	-104.992
84.961	-104.409
85.937	-100.277
86.914	-97.094
87.891	-98.668
88.867	-97.927
89.844	-98.783
90.820	-101.363
91.797	-95.762
92.773	-93.915
93.750	-101.951
94.727	-105.693
95.703	-96.669
96.680	-98.101
97.656	-105.104
98.633	-95.112
99.609	-94.082
100.586	-91.596
101.562	-96.314
102.539	-93.315
103.516	-97.398
104.492	-96.932
105.469	-107.853
106.445	-99.006
107.422	-104.989
108.398	-99.318
109.375	-93.847
110.352	-99.058
111.328	-104.006
112.305	-99.580
113.281	-96.362
114.258	-93.957
115.234	-92.150
116.211	-97.696
117.187	-102.375
118.164	-99.512
119.141	-98.435
120.117	-95.830
121.094	-92.009
122.070	-94.305
123.047	-102.680
124.023	-108.032
125.000	-95.859
125.977	-94.915
126.953	-91.798
127.930	-94.652
128.906	-107.434
129.883	-104.170
130.859	-104.856
131.836	-95.732
132.812	-95.175
133.789	-98.286
134.766	-95.853
135.742	-106.260
136.719	-91.929
137.695	-93.484
138.672	-99.468
139.648	-94.674
140.625	-97.261
141.602	-99.411
142.578	-94.307
143.555	-95.172
144.531	-88.153
145.508	-86.101
146.484	-90.537
147.461	-93.707
148.437	-99.211
149.414	-105.826
150.391	-99.582
151.367	-95.009
152.344	-106.071
153.320	-94.473
154.297	-102.383
155.273	-92.658
156.250	-94.485
157.227	-92.322
158.203	-97.004
159.180	-94.257
160.156	-95.891
161.133	-95.578
162.109	-100.415
163.086	-122.845
164.062	-105.098
165.039	-103.948
166.016	-107.625
166.992	-100.129
167.969	-97.362
168.945	-103.809
169.922	-99.828
170.898	-96.467
171.875	-106.116
172.852	-99.710
173.828	-98.245
174.805	-93.416
175.781	-92.245
176.758	-98.325
177.734	-95.092
178.711	-99.324
179.687	-100.359
180.664	-91.599
181.641	-94.519
182.617	-105.250
183.594	-103.011
184.570	-101.125
185.547	-105.800
186.523	-93.080
187.500	-93.963
188.477	-107.895
189.453	-101.063
190.430	-98.267
191.406	-95.699
192.383	-93.646
193.359	-95.670
194.336	-100.963
195.312	-102.949
196.289	-94.557
197.266	-95.155
198.242	-90.155
199.219	-103.285
200.195	-98.120
201.172	-94.653
202.148	-90.069
203.125	-97.236
204.102	-102.509
205.078	-99.652
206.055	-99.910
207.031	-98.004
208.008	-93.212
208.984	-105.147
209.961	-99.818
210.937	-98.290
211.914	-99.849
212.891	-102.082
213.867	-101.094
214.844	-96.448
215.820	-90.122
216.797	-90.523
217.773	-91.563
218.750	-96.956
219.727	-105.122
220.703	-102.600
221.680	-102.705
222.656	-96.462
223.633	-93.192
224.609	-103.913
225.586	-103.781
226.562	-101.703
227.539	-99.753
228.516	-95.122
229.492	-88.828
230.469	-87.568
231.445	-92.714
232.422	-100.629
233.398	-102.432
234.375	-96.227
235.352	-99.556
236.328	-93.872
237.305	-93.360
238.281	-98.219
239.258	-92.549
240.234	-91.208
241.211	-99.057
242.187	-103.685
243.164	-108.349
244.141	-95.515
245.117	-90.277
246.094	-89.554
247.070	-98.747
248.047	-96.231
249.023	-102.525
250.000	-100.786
250.977	-96.865
251.953	-100.996
252.930	-99.409
253.906	-92.957
254.883	-95.660
255.859	-98.581
256.836	-104.815
257.812	-96.534
258.789	-95.687
259.766	-91.237
260.742	-92.169
261.719	-99.865
262.695	-104.247
263.672	-103.435
264.648	-99.159
265.625	-99.569
266.602	-97.568
267.578	-99.301
268.555	-97.808
269.531	-98.226
270.508	-105.454
271.484	-95.408
272.461	-92.633
273.437	-93.922
274.414	-99.141
275.391	-103.994
276.367	-98.927
277.344	-99.955
278.320	-99.971
279.297	-104.634
280.273	-105.754
281.250	-97.668
282.227	-99.199
283.203	-100.026
284.180	-98.634
285.156	-95.116
286.133	-103.188
287.109	-97.137
288.086	-94.652
289.062	-95.236
290.039	-102.360
291.016	-110.881
291.992	-105.839
292.969	-98.737
293.945	-93.286
294.922	-92.684
295.898	-99.720
296.875	-101.073
297.852	-95.026
298.828	-96.557
299.805	-96.120
300.781	-91.992
301.758	-90.549
302.734	-89.806
303.711	-93.324
304.687	-103.350
305.664	-96.185
306.641	-94.615
307.617	-96.885
308.594	-104.438
309.570	-114.310
310.547	-95.861
311.523	-91.561
312.500	-92.320
313.477	-100.033
314.453	-107.127
315.430	-102.486
316.406	-92.876
317.383	-96.616
318.359	-95.659
319.336	-92.578
320.312	-96.526
321.289	-93.395
322.266	-98.029
323.242	-94.586
324.219	-103.911
325.195	-97.660
326.172	-97.421
327.148	-97.688
328.125	-92.594
329.102	-88.078
330.078	-83.775
331.055	-81.313
332.031	-86.952
333.008	-96.960
333.984	-108.361
334.961	-100.835
335.937	-91.367
336.914	-91.364
337.891	-95.857
338.867	-99.373
339.844	-98.308
340.820	-96.171
341.797	-103.015
342.773	-101.038
343.750	-97.094
344.727	-95.524
345.703	-99.523
346.680	-99.265
347.656	-100.146
348.633	-102.747
349.609	-98.798
350.586	-90.155
351.562	-92.431
352.539	-108.922
353.516	-97.970
354.492	-107.867
355.469	-92.029
356.445	-92.506
357.422	-94.356
358.398	-96.650
359.375	-91.265
360.352	-92.501
361.328	-93.069
362.305	-95.461
363.281	-93.513
364.258	-91.122
365.234	-93.545
366.211	-109.043
367.187	-101.622
368.164	-95.212
369.141	-94.087
370.117	-96.804
371.094	-95.512
372.070	-96.198
373.047	-101.071
374.023	-97.963
375.000	-95.354
375.977	-95.463
376.953	-91.314
377.930	-89.722
378.906	-91.182
379.883	-98.712
380.859	-103.286
381.836	-101.130
382.812	-119.691
383.789	-102.108
384.766	-102.389
385.742	-96.463
386.719	-90.038
387.695	-88.171
388.672	-97.185
389.648	-95.570
390.625	-91.512
391.602	-92.437
392.578	-104.530
393.555	-93.547
394.531	-99.721
395.508	-95.924
396.484	-102.820
397.461	-103.848
398.437	-98.093
399.414	-100.954
400.391	-98.118
401.367	-97.980
402.344	-100.971
403.320	-93.514
404.297	-93.498
405.273	-94.373
406.250	-96.845
407.227	-103.759
408.203	-96.940
409.180	-95.195
410.156	-107.964
411.133	-98.037
412.109	-101.166
413.086	-100.379
414.062	-97.793
415.039	-97.283
416.016	-96.964
416.992	-97.512
417.969	-96.317
418.945	-108.625
419.922	-97.901
420.898	-105.370
421.875	-93.078
422.852	-99.003
423.828	-94.020
424.805	-92.606
425.781	-97.467
426.758	-99.158
427.734	-97.190
428.711	-93.226
429.687	-93.171
430.664	-99.121
431.641	-95.286
432.617	-103.092
433.594	-97.005
434.570	-94.818
435.547	-94.909
436.523	-92.429
437.500	-94.376
438.477	-93.273
439.453	-94.187
440.430	-97.802
441.406	-102.533
442.383	-99.355
443.359	-109.524
444.336	-90.659
445.312	-75.434
446.289	-73.784
447.266	-89.302
448.242	-90.310
449.219	-93.676
450.195	-91.086
451.172	-95.798
452.148	-103.762
453.125	-111.868
454.102	-98.675
455.078	-92.671
456.055	-96.887
457.031	-105.924
458.008	-92.479
458.984	-91.277
459.961	-82.534
460.937	-85.468
461.914	-93.932
462.891	-97.014
463.867	-102.634
464.844	-91.938
465.820	-91.089
466.797	-89.903
467.773	-90.497
468.750	-98.611
469.727	-98.729
470.703	-94.463
471.680	-93.979
472.656	-98.467
473.633	-119.839
474.609	-103.434
475.586	-102.857
476.562	-100.391
477.539	-102.260
478.516	-95.024
479.492	-93.886
480.469	-95.560
481.445	-94.647
482.422	-96.591
483.398	-97.663
484.375	-90.108
485.352	-92.293
486.328	-108.942
487.305	-99.526
488.281	-93.007
489.258	-97.535
490.234	-97.623
491.211	-104.051
492.187	-96.019
493.164	-106.105
494.141	-97.820
495.117	-98.039
496.094	-101.060
497.070	-104.779
498.047	-98.982
499.023	-92.345
500.000	-91.606
500.977	-96.399
501.953	-94.228
502.930	-97.060
503.906	-102.599
504.883	-102.029
505.859	-95.021
506.836	-93.584
507.812	-107.239
508.789	-101.767
509.766	-98.854
510.742	-98.585
511.719	-102.064
512.695	-94.642
513.672	-97.155
514.648	-99.348
515.625	-94.251
516.602	-97.225
517.578	-95.825
518.555	-93.222
519.531	-102.471
520.508	-101.381
521.484	-107.168
522.461	-98.606
523.437	-96.653
524.414	-103.512
525.391	-110.094
526.367	-97.002
527.344	-96.170
528.320	-98.283
529.297	-99.525
530.273	-117.753
531.250	-104.141
532.227	-97.047
533.203	-95.816
534.180	-102.822
535.156	-94.846
536.133	-92.586
537.109	-98.648
538.086	-98.825
539.062	-100.895
540.039	-100.657
541.016	-92.214
541.992	-96.340
542.969	-104.767
543.945	-98.539
544.922	-95.943
545.898	-91.726
546.875	-82.518
547.852	-87.348
548.828	-100.462
549.805	-98.996
550.781	-97.932
551.758	-94.527
552.734	-93.053
553.711	-97.191
554.687	-95.610
555.664	-93.318
556.641	-127.192
557.617	-93.735
558.594	-98.080
559.570	-97.753
560.547	-89.504
561.523	-89.751
562.500	-100.384
563.477	-98.716
564.453	-101.067
565.430	-99.363
566.406	-98.720
567.383	-95.025
568.359	-92.684
569.336	-97.304
570.312	-92.355
571.289	-92.745
572.266	-100.796
573.242	-97.359
574.219	-99.289
575.195	-93.257
576.172	-89.349
577.148	-89.356
578.125	-90.041
579.102	-90.055
580.078	-92.419
581.055	-102.102
582.031	-105.578
583.008	-101.062
583.984	-95.047
584.961	-96.006
585.937	-99.521
586.914	-98.276
587.891	-91.948
588.867	-84.027
589.844	-85.496
590.820	-93.868
591.797	-92.464
592.773	-100.115
593.750	-97.682
594.727	-99.137
595.703	-97.311
596.680	-94.214
597.656	-95.859
598.633	-94.461
599.609	-96.723
600.586	-110.006
601.562	-102.975
602.539	-98.346
603.516	-96.682
604.492	-97.993
605.469	-103.973
606.445	-100.804
607.422	-98.245
608.398	-103.016
609.375	-96.585
610.352	-99.340
611.328	-98.747
612.305	-110.968
613.281	-99.209
614.258	-115.432
615.234	-98.371
616.211	-95.564
617.187	-97.419
618.164	-102.160
619.141	-97.345
620.117	-94.395
621.094	-103.924
622.070	-109.812
623.047	-105.842
624.023	-96.735
625.000	-94.028
625.977	-91.995
626.953	-98.524
627.930	-112.316
628.906	-106.397
629.883	-102.860
630.859	-105.204
631.836	-99.227
632.812	-89.997
633.789	-87.354
634.766	-91.060
635.742	-96.360
636.719	-94.481
637.695	-94.023
638.672	-93.167
639.648	-96.868
640.625	-107.616
641.602	-116.301
642.578	-103.903
643.555	-95.686
644.531	-97.233
645.508	-105.739
646.484	-95.019
647.461	-88.060
648.437	-87.607
649.414	-95.971
650.391	-103.665
651.367	-97.187
652.344	-91.348
653.320	-98.239
654.297	-93.578
655.273	-90.934
656.250	-91.962
657.227	-94.146
658.203	-102.150
659.180	-107.358
660.156	-97.794
661.133	-90.499
662.109	-86.734
663.086	-90.397
664.062	-90.496
665.039	-93.281
666.016	-95.653
666.992	-103.151
667.969	-108.728
668.945	-98.975
669.922	-95.591
670.898	-99.178
671.875	-101.171
672.852	-101.854
673.828	-98.668
674.805	-98.659
675.781	-89.168
676.758	-92.051
677.734	-104.414
678.711	-99.756
679.687	-94.618
680.664	-97.923
681.641	-96.426
682.617	-98.500
683.594	-93.479
684.570	-93.255
685.547	-98.901
686.523	-107.981
687.500	-103.948
688.477	-99.148
689.453	-101.019
690.430	-92.999
691.406	-103.296
692.383	-97.987
693.359	-100.228
694.336	-101.313
695.312	-100.260
696.289	-97.202
697.266	-95.291
698.242	-92.946
699.219	-97.267
700.195	-96.704
701.172	-97.996
702.148	-94.878
703.125	-97.288
704.102	-104.980
705.078	-97.950
706.055	-94.154
707.031	-94.617
708.008	-94.053
708.984	-99.330
709.961	-98.156
710.937	-104.969
711.914	-95.329
712.891	-100.584
713.867	-100.059
714.844	-94.663
715.820	-90.925
716.797	-89.593
717.773	-91.425
718.750	-95.303
719.727	-95.529
720.703	-92.541
721.680	-98.975
722.656	-99.892
723.633	-111.946
724.609	-97.390
725.586	-104.963
726.562	-97.033
727.539	-92.175
728.516	-93.568
729.492	-101.407
730.469	-98.589
731.445	-92.642
732.422	-87.288
733.398	-85.420
734.375	-86.648
735.352	-92.037
736.328	-91.692
737.305	-98.882
738.281	-97.608
739.258	-92.168
740.234	-89.035
741.211	-93.104
742.187	-90.790
743.164	-93.866
744.141	-87.971
745.117	-92.780
746.094	-92.313
747.070	-93.742
748.047	-88.894
749.023	-92.397
750.000	-88.363
750.977	-96.700
751.953	-85.461
752.930	-87.301
753.906	-92.694
754.883	-84.535
755.859	-84.613
756.836	-83.919
757.812	-81.308
758.789	-82.255
759.766	-78.272
760.742	-78.490
761.719	-74.815
762.695	-78.608
763.672	-70.876
764.648	-71.200
765.625	-68.583
766.602	-66.331
767.578	-63.848
768.555	-60.692
769.531	-57.770
770.508	-53.893
771.484	-49.633
772.461	-44.367
773.437	-37.792
774.414	-28.753
775.391	-13.655
776.367	3.649
777.344	5.274
778.320	-6.062
779.297	-25.461
780.273	-35.582
781.250	-42.723
782.227	-48.198
783.203	-52.819
784.180	-56.684
785.156	-59.945
786.133	-63.090
787.109	-65.633
788.086	-67.865
789.062	-70.355
790.039	-70.879
791.016	-78.756
791.992	-73.828
792.969	-76.413
793.945	-80.439
794.922	-79.973
795.898	-81.829
796.875	-84.927
797.852	-82.275
798.828	-89.324
799.805	-84.686
800.781	-88.498
801.758	-87.836
802.734	-91.220
803.711	-89.232
804.687	-93.471
805.664	-87.386
806.641	-100.654
807.617	-94.723
808.594	-94.208
809.570	-92.914
810.547	-94.232
811.523	-97.460
812.500	-108.397
813.477	-90.784
814.453	-98.833
815.430	-95.703
816.406	-96.190
817.383	-110.564
818.359	-106.848
819.336	-95.904
820.312	-96.717
821.289	-95.907
822.266	-100.728
823.242	-94.917
824.219	-101.478
825.195	-97.851
826.172	-97.538
827.148	-94.794
828.125	-93.991
829.102	-98.923
830.078	-111.556
831.055	-104.063
832.031	-98.187
833.008	-94.166
833.984	-91.058
834.961	-90.686
835.937	-90.719
836.914	-95.089
837.891	-89.977
838.867	-90.840
839.844	-97.752
840.820	-101.786
841.797	-93.640
842.773	-97.591
843.750	-104.081
844.727	-95.090
845.703	-107.319
846.680	-100.980
847.656	-95.530
848.633	-103.259
849.609	-95.244
850.586	-92.895
851.562	-91.338
852.539	-97.862
853.516	-97.422
854.492	-96.613
855.469	-99.590
856.445	-98.132
857.422	-100.079
858.398	-101.654
859.375	-94.813
860.352	-93.806
861.328	-97.674
862.305	-109.935
863.281	-109.433
864.258	-100.542
865.234	-102.716
866.211	-97.744
867.187	-103.478
868.164	-98.618
869.141	-96.966
870.117	-92.587
871.094	-92.857
872.070	-94.719
873.047	-94.420
874.023	-104.879
875.000	-93.394
875.977	-93.695
876.953	-94.337
877.930	-89.124
878.906	-91.508
879.883	-96.795
880.859	-102.808
881.836	-102.316
882.812	-105.258
883.789	-95.105
884.766	-92.599
885.742	-97.204
886.719	-107.525
887.695	-103.245
888.672	-104.654
889.648	-101.591
890.625	-97.501
891.602	-82.474
892.578	-82.440
893.555	-97.367
894.531	-94.979
895.508	-92.873
896.484	-93.577
897.461	-92.798
898.437	-93.717
899.414	-101.493
900.391	-91.407
901.367	-101.012
902.344	-106.594
903.320	-97.846
904.297	-99.931
905.273	-103.044
906.250	-108.335
907.227	-99.684
908.203	-96.082
909.180	-103.753
910.156	-100.145
911.133	-101.274
912.109	-101.385
913.086	-103.012
914.062	-95.825
915.039	-98.928
916.016	-101.532
916.992	-96.108
917.969	-95.736
918.945	-102.304
919.922	-92.448
920.898	-93.492
921.875	-94.155
922.852	-97.608
923.828	-96.117
924.805	-91.382
925.781	-92.272
926.758	-97.797
927.734	-103.743
928.711	-96.776
929.687	-98.078
930.664	-97.630
931.641	-101.643
932.617	-112.200
933.594	-95.571
934.570	-91.619
935.547	-100.480
936.523	-98.199
937.500	-99.045
938.477	-105.166
939.453	-107.745
940.430	-93.638
941.406	-94.312
942.383	-102.101
943.359	-102.260
944.336	-99.944
945.312	-103.505
946.289	-106.277
947.266	-102.481
948.242	-91.795
949.219	-93.862
950.195	-99.628
951.172	-98.340
952.148	-107.538
953.125	-98.299
954.102	-94.737
955.078	-100.586
956.055	-104.951
957.031	-101.382
958.008	-95.050
958.984	-93.619
959.961	-97.185
960.937	-92.388
961.914	-99.090
962.891	-98.116
963.867	-100.704
964.844	-101.294
965.820	-99.362
966.797	-97.869
967.773	-94.263
968.750	-96.442
969.727	-108.009
970.703	-114.059
971.680	-97.007
972.656	-93.551
973.633	-95.933
974.609	-96.200
975.586	-92.881
976.562	-96.042
977.539	-96.416
978.516	-88.998
979.492	-90.122
980.469	-97.698
981.445	-98.418
982.422	-101.636
983.398	-97.584
984.375	-101.732
985.352	-99.803
986.328	-102.938
987.305	-96.600
988.281	-98.437
989.258	-98.123
990.234	-100.599
991.211	-100.527
992.187	-80.968
993.164	-78.071
994.141	-88.215
995.117	-103.307
996.094	-108.577
997.070	-118.525
998.047	-108.245
999.023	-100.215
